id,arrival_time,turnstile_time,admission_time,total_wait
1,63853.43058216413,6.073956228668976,63859.5045383928,6.073956228668976
2,63941.29390642043,4.350218068699178,63945.64412448913,4.350218068699178
3,63994.16832791539,3.9946571983746253,63998.16298511376,3.9946571983746253
4,64032.39327869997,3.7116959796767333,64036.10497467965,3.7116959796767333
5,64062.46897399091,4.445131793530891,64066.91410578444,4.445131793530891
6,64087.32966435245,4.257920537558675,64091.58758489001,4.257920537558675
7,64108.55690787468,5.88049935521849,64114.437407229896,5.88049935521849
8,64127.10290002846,3.5037083848947077,64130.606608413356,3.5037083848947077
9,64143.58636832079,4.066908403336129,64147.65327672413,4.066908403336129
10,64158.43251814999,3.700624675147992,64162.133142825136,3.700624675147992
11,64171.94638990079,3.23675878400536,64175.183148684795,3.23675878400536
12,64184.35439617759,3.4935647305028397,64187.84796090809,3.4935647305028397
13,64195.82930239546,3.0800107775139622,64198.909313172975,3.0800107775139622
14,64206.50599615815,3.821900674236531,64210.32789683239,3.821900674236531
15,64216.49184689122,3.7616461313155014,64220.25349302254,3.7616461313155014
16,64225.87374283821,4.333742309216177,64230.207485147424,4.333742309216177
17,64234.723008930676,6.734162874905451,64241.45717180558,6.734162874905451
18,64243.098928904576,3.3002245140087325,64246.399153418584,3.3002245140087325
19,64251.051322172236,3.857227925785992,64254.90855009802,3.857227925785992
20,64258.622464800894,4.73207976447884,64263.35454456537,4.73207976447884
21,64265.848545522735,4.374998403916834,64270.22354392665,4.374998403916834
22,64272.760785795406,4.370339312881697,64277.13112510829,4.370339312881697
23,64279.386312967676,4.21817001758609,64283.60448298526,4.21817001758609
24,64285.748849199954,4.533479747646197,64290.2823289476,4.533479747646197
25,64291.8692609752,3.2249626436823746,64295.094223618886,3.2249626436823746
26,64297.76600178926,3.344080033559294,64301.11008182282,3.344080033559294
27,64303.455472045345,3.9540024531670497,64307.40947449851,3.9540024531670497
28,64308.95231409459,6.247129077783029,64315.19944317237,6.247129077783029
29,64314.26965598144,6.726031408346898,64320.99568738979,6.726031408346898
30,64319.41931425335,3.426189238714869,64322.84550349206,3.426189238714869
31,64324.411963830054,4.02932053522818,64328.44128436528,4.02932053522818
32,64329.257281161335,4.042521275121544,64333.29980243646,4.042521275121544
33,64333.9640655682,3.9092831756715896,64337.87334874387,3.9092831756715896
34,64338.540342646,8.74868078448344,64347.28902343049,8.74868078448344
35,64342.99345282559,5.865742396621499,64348.85919522221,5.865742396621499
36,64347.3301275819,5.0008096424498945,64352.33093722435,5.0008096424498945
37,64351.55655530502,3.594757242470223,64355.15131254749,3.594757242470223
38,64355.67843847479,3.264691411764943,64358.94312988655,3.264691411764943
39,64359.7010434838,7.64929062579904,64367.3503341096,7.64929062579904
40,64363.62924421648,5.461296242821845,64369.0905404593,5.461296242821845
41,64367.46756030212,3.462275675679848,64370.9298359778,3.462275675679848
42,64371.220190805645,5.035416787621216,64376.255607593266,5.035416787621216
43,64374.89104399497,3.5107285235717427,64378.40177251854,3.5107285235717427
44,64378.48376372178,6.303475323911698,64384.78723904569,6.303475323911698
45,64382.00175286864,3.434429157190607,64385.43618202583,3.434429157190607
46,64385.44819424604,3.4090939927264117,64388.85728823877,3.4090939927264117
47,64388.826069265786,3.047155125757854,64391.873224391544,3.047155125757854
48,64392.138174669155,4.122870771105227,64396.26104544026,4.122870771105227
49,64395.38713754867,5.121038687415421,64400.508176236086,5.121038687415421
50,64398.57542886834,3.703392101924692,64402.27882097026,3.703392101924692
51,64401.70537565948,3.479104076293879,64405.18447973578,3.479104076293879
52,64404.77917204497,5.802513492853905,64410.58168553782,5.802513492853905
53,64407.79888922472,5.87421263899887,64413.67310186372,5.87421263899887
54,64410.766484538,3.084197193988075,64413.85068173199,3.084197193988075
55,64413.68380970306,6.153935446382093,64419.837745149445,6.153935446382093
56,64416.55261832267,4.961058935114124,64421.51367725778,4.961058935114124
57,64419.37457273238,3.1021671791531844,64422.47673991153,3.1021671791531844
58,64422.151250259936,3.8219002564510447,64425.97315051639,3.8219002564510447
59,64424.88414895535,4.253392353231902,64429.137541308584,4.253392353231902
60,64427.5746928448,3.2863417297630804,64430.86103457456,3.2863417297630804
62,64432.834070749675,3.0514583941185265,64435.885529143794,3.0514583941185265
61,64430.22423675499,7.642566146030731,64437.86680290102,7.642566146030731
63,64435.40542421506,5.15591750414751,64440.56134171921,5.15591750414751
64,64437.939469627156,3.2274760143336607,64441.16694564149,3.2274760143336607
65,64440.43732603026,3.733325256012904,64444.17065128627,3.733325256012904
66,64442.90006225286,3.0716059382320964,64445.971668191094,3.0716059382320964
67,64445.32869988444,4.645851057415712,64449.97455094186,4.645851057415712
68,64447.72421603423,5.131862983362225,64452.85607901759,5.131862983362225
69,64450.08754589083,4.926727763348026,64455.014273654175,4.926727763348026
70,64452.41958509975,5.958104477627785,64458.37768957738,5.958104477627785
71,64454.72119197428,7.633620392109151,64462.354812366386,7.633620392109151
72,64456.99318955335,5.880799965365441,64462.87398951872,5.880799965365441
73,64459.23636751927,5.017849383984867,64464.25421690325,5.017849383984867
74,64461.451483986275,4.2969045573991025,64465.748388543674,4.2969045573991025
75,64463.639267170576,4.6485947901019244,64468.28786196068,4.6485947901019244
76,64465.800416950944,6.7058760962681845,64472.50629304721,6.7058760962681845
77,64467.9356063285,6.3700931924176984,64474.30569952092,6.3700931924176984
78,64470.04548279342,4.659460356000636,64474.70494314942,4.659460356000636
79,64472.13066960554,3.10319349088968,64475.23386309643,3.10319349088968
80,64474.19176699537,4.892877928614325,64479.08464492398,4.892877928614325
81,64476.229353291346,4.0646566074792645,64480.294009898826,4.0646566074792645
82,64478.24398597877,5.034588169808558,64483.27857414858,5.034588169808558
83,64480.23620269521,3.389348380813317,64483.625551076024,3.389348380813317
84,64482.20652216712,4.981095852643193,64487.187618019765,4.981095852643193
85,64484.15544509155,6.738517719655647,64490.893962811206,6.738517719655647
86,64486.083454966974,4.865105399454478,64490.94856036643,4.865105399454478
87,64487.9910188766,3.35164223373431,64491.342661110335,3.35164223373431
88,64489.87858822751,4.27546898406581,64494.15405721158,4.27546898406581
90,64493.59547464901,4.411945809792087,64498.0074204588,4.411945809792087
89,64491.746599448416,6.406245232174115,64498.15284468059,6.406245232174115
91,64495.425622243216,3.654571181999927,64499.080193425216,3.654571181999927
92,64497.237437538846,4.336874545108003,64501.574312083954,4.336874545108003
93,64499.03130329573,3.3191016605778714,64502.350404956305,3.3191016605778714
94,64500.80759025433,4.821607631900406,64505.62919788623,4.821607631900406
96,64504.30885362186,4.073035893932683,64508.38188951579,4.073035893932683
95,64502.56665763676,6.322861692431616,64508.88951932919,6.322861692431616
97,64506.03451579592,3.731131758162519,64509.76564755408,3.731131758162519
99,64509.43753863945,5.086997574719135,64514.52453621417,5.086997574719135
100,64511.11552526399,3.587381148368877,64514.702906412356,3.587381148368877
98,64507.743971580625,7.876238981320057,64515.620210561945,7.876238981320057
101,64512.77823074115,3.5094919180919533,64516.28772265924,3.5094919180919533
102,64514.425945702584,4.475711932813283,64518.9016576354,4.475711932813283
103,64516.05895245726,3.4975974235858303,64519.55654988084,3.4975974235858303
104,64517.67752530812,4.4041744217902306,64522.08169972991,4.4041744217902306
105,64519.28193085379,4.264807742118137,64523.546738595905,4.264807742118137
106,64520.872428276154,3.761507202339999,64524.633935478494,3.761507202339999
107,64522.44926961462,3.500626676279353,64525.9498962909,3.500626676279353
109,64525.5629580429,3.6923602728711558,64529.25531831577,3.6923602728711558
110,64527.10027579489,3.3592884836762096,64530.459564278564,3.3592884836762096
108,64524.01270002773,6.908297017296718,64530.920997045025,6.908297017296718
112,64530.136988441685,4.290151567256544,64534.42714000894,4.290151567256544
113,64531.63681764292,4.429306668454956,64536.06612431137,4.429306668454956
114,64533.12457560107,4.522830177025753,64537.647405778094,4.522830177025753
115,64534.60046571051,3.219201282445283,64537.81966699295,3.219201282445283
111,64528.62487925358,10.597349936921091,64539.2222291905,10.597349936921091
118,64538.958886424574,3.0854859817554825,64542.04437240633,3.0854859817554825
117,64537.51743029998,4.769463691227429,64542.28689399121,4.769463691227429
116,64536.06468619852,6.292554383711831,64542.357240582234,6.292554383711831
119,64540.38923831713,5.1918223253887845,64545.58106064252,5.1918223253887845
120,64541.808665211334,4.4411260718115955,64546.249791283146,4.4411260718115955
121,64543.21734197707,3.1500943114660913,64546.367436288536,3.1500943114660913
122,64544.615439261834,3.3135133939867956,64547.92895265582,3.3135133939867956
124,64547.38055767519,3.689162077389483,64551.06971975258,3.689162077389483
125,64548.747900181195,4.4623096155773965,64553.21020979677,4.4623096155773965
126,64550.10530620629,3.143708855153818,64553.24901506145,3.143708855153818
123,64546.00312362642,9.292447833438928,64555.29557145986,9.292447833438928
127,64551.45292721669,4.359921989911527,64555.8128492066,4.359921989911527
129,64554.11940274163,3.9894042410087422,64558.10880698264,3.9894042410087422
128,64552.79091119393,5.825768798422359,64558.61667999235,5.825768798422359
130,64555.43854318817,3.7248659784090705,64559.16340916658,3.7248659784090705
131,64556.74847068546,3.968204644108482,64560.71667532957,3.968204644108482
132,64558.04932030405,4.470588628508267,64562.51990893256,4.470588628508267
133,64559.34122412465,4.6912099422333995,64564.03243406688,4.6912099422333995
135,64561.89870827109,5.393894012384408,64567.29260228347,5.393894012384408
136,64563.16453858643,4.434257818786136,64567.59879640522,4.434257818786136
134,64560.62431132625,7.255161205866898,64567.87947253212,7.255161205866898
137,64564.42192324343,4.577459021660616,64568.999382265094,4.577459021660616
138,64565.67098063318,4.851116634337814,64570.522097267516,4.851116634337814
139,64566.91182664,4.192073869606247,64571.1039005096,4.192073869606247
140,64568.14457471216,4.685209447154193,64572.829784159316,4.685209447154193
141,64569.36933593016,5.125012786062143,64574.49434871622,5.125012786062143
143,64571.79533067936,4.379507363912126,64576.17483804327,4.379507363912126
142,64570.58621907251,6.206692623214622,64576.792911695724,6.206692623214622
144,64572.99677511386,3.9477936517942,64576.944568765655,3.9477936517942
145,64574.19065462147,4.110918081809359,64578.301572703276,4.110918081809359
146,64575.37706938719,3.8046406505745836,64579.18171003777,3.8046406505745836
148,64577.727895461154,3.654294074520294,64581.382189535674,3.654294074520294
147,64576.556117590975,5.0266497026677825,64581.58276729364,5.0266497026677825
150,64580.05001566467,4.465420437583816,64584.51543610225,4.465420437583816
151,64581.20054115369,3.590832157591649,64584.79137331128,3.590832157591649
149,64578.89249732618,7.389093795653025,64586.281591121835,7.389093795653025
152,64582.34416271561,4.057015098158445,64586.40117781377,4.057015098158445
153,64583.48096756337,3.5096403457864653,64586.99060790916,3.5096403457864653
154,64584.61104124427,4.708466758376744,64589.31950800265,4.708466758376744
155,64585.73446768242,4.08089780305454,64589.815365485476,4.08089780305454
156,64586.8513292198,3.451203278498724,64590.302532498295,3.451203278498724
157,64587.961706656,4.0894694551461725,64592.05117611115,4.0894694551461725
159,64590.16332494162,3.1843113506838563,64593.3476362923,3.1843113506838563
158,64589.06567928685,5.120943490714126,64594.18662277756,5.120943490714126
160,64591.25472001929,3.474130870308727,64594.7288508896,3.474130870308727
161,64592.33993952359,3.381050719835912,64595.720990243426,3.381050719835912
163,64594.4921450535,3.1930332694246317,64597.68517832292,3.1930332694246317
162,64593.419057096944,4.448937736458902,64597.8679948334,4.448937736458902
165,64596.62051492196,3.1627776760724373,64599.78329259803,3.1627776760724373
164,64595.559274411025,4.569134758472501,64600.1284091695,4.569134758472501
167,64598.72560226662,3.0897783775726566,64601.81538064419,3.0897783775726566
166,64597.67593510346,5.846530769238598,64603.5224658727,5.846530769238598
170,64601.840741254586,3.1663431503038737,64605.00708440489,3.1663431503038737
169,64600.807940920895,4.795732394086372,64605.60367331498,4.795732394086372
171,64602.86804630767,4.715998524581664,64607.58404483225,4.715998524581664
174,64605.91760146088,3.1497900165995816,64609.06739147748,3.1497900165995816
173,64604.90641628155,4.224053873811499,64609.13047015536,4.224053873811499
168,64599.769582544744,9.590677560008771,64609.36026010475,9.590677560008771
172,64603.88991776952,6.174541383770702,64610.06445915329,6.174541383770702
175,64606.9235319235,3.675136489822762,64610.598668413324,3.675136489822762
176,64607.92426530667,3.4972585993018583,64611.42152390597,3.4972585993018583
178,64609.91036662036,3.4241970197763294,64613.334563640135,3.4241970197763294
179,64610.89584512511,3.9366029924131,64614.83244811752,3.9366029924131
177,64608.91985829074,7.713316108674917,64616.633174399416,7.713316108674917
182,64613.822636676814,3.6502084165113047,64617.472845093325,3.6502084165113047
181,64612.8519275226,4.629251013131579,64617.48117853573,4.629251013131579
180,64611.87634773952,6.595451724875602,64618.471799464394,6.595451724875602
183,64614.788526566525,3.9131063946770155,64618.7016329612,3.9131063946770155
186,64617.65778209475,3.1490941623487743,64620.8068762571,3.1490941623487743
188,64619.54742835729,3.149195605496061,64622.69662396279,3.149195605496061
185,64616.70604992672,6.244333601309336,64622.95038352803,6.244333601309336
187,64618.60489242695,5.005134995306435,64623.610027422255,5.005134995306435
189,64620.48543658252,3.6828740167911747,64624.168310599314,3.6828740167911747
184,64615.74964773596,8.443980855889095,64624.19362859185,8.443980855889095
191,64622.34805310995,5.2534882279724116,64627.60154133792,5.2534882279724116
193,64624.193101410405,3.8046073898367467,64627.99770880024,3.8046073898367467
190,64621.41896307747,8.178648743094527,64629.597611820565,8.178648743094527
192,64623.272751255274,6.576179119605513,64629.84893037488,6.576179119605513
195,64626.02093002859,3.899858720258635,64629.92078874885,3.899858720258635
194,64625.10914680775,4.988863524376939,64630.09801033213,4.988863524376939
197,64627.83187708851,3.439797726314282,64631.27167481482,3.439797726314282
196,64626.92849301618,4.355663859620108,64631.2841568758,4.355663859620108
198,64628.73112295075,3.037264295082423,64631.76838724583,3.037264295082423
199,64629.62627070743,3.8106772949759034,64633.4369480024,3.8106772949759034
200,64630.51735987422,5.085757653432665,64635.60311752765,5.085757653432665
201,64631.404429389535,5.79322229790705,64637.19765168744,5.79322229790705
203,64633.16666240026,4.360483202770411,64637.52714560303,4.360483202770411
202,64632.28751762576,6.369409180821094,64638.65692680658,6.369409180821094
205,64634.913270122524,3.869306843713275,64638.78257696624,3.869306843713275
206,64635.780806025134,3.0139218118420104,64638.794727836976,3.0139218118420104
204,64634.04190098611,4.978819078853121,64639.02072006496,4.978819078853121
207,64636.644544395895,4.846322881276137,64641.49086727717,4.846322881276137
209,64638.36076883968,5.1959061123779975,64643.55667495206,5.1959061123779975
211,64640.06221916081,3.605363410359132,64643.66758257117,3.605363410359132
212,64640.90748809278,3.884946173784556,64644.792434266565,3.884946173784556
208,64637.50452043286,7.417438600590685,64644.921959033454,7.417438600590685
213,64641.7491634474,3.3130512725838344,64645.06221471998,3.3130512725838344
210,64639.213323834854,6.5614770493266406,64645.77480088418,6.5614770493266406
215,64643.42186244873,3.004350581577455,64646.42621303031,3.004350581577455
214,64642.58727759117,5.132144517287088,64647.71942210846,5.132144517287088
217,64645.08056984253,3.1929316386886057,64648.27350148122,3.1929316386886057
216,64644.2529495109,4.439176446569036,64648.69212595747,4.439176446569036
219,64646.72553249005,3.1118502886383794,64649.837382778685,3.1118502886383794
221,64648.356990679735,3.572680439276155,64651.92967111901,3.572680439276155
220,64647.54293487441,4.9902037576976,64652.533138632105,4.9902037576976
223,64649.9751783601,3.6413753168817493,64653.616553676984,3.6413753168817493
222,64649.1677289533,4.688031159348611,64653.85576011265,4.688031159348611
224,64650.7793671896,3.548185576371907,64654.32755276597,3.548185576371907
225,64651.5803233623,3.1016454945347505,64654.681968856836,3.1016454945347505
218,64645.90475409028,9.164458492603444,64655.06921258289,9.164458492603444
226,64652.37807443618,4.383717284465092,64656.761791720644,4.383717284465092
229,64654.75236733795,3.982507060507487,64658.734874398455,3.982507060507487
228,64653.96406974437,5.114971660244919,64659.07904140461,5.114971660244919
227,64653.17264761298,6.206469894357724,64659.379117507335,6.206469894357724
230,64655.53756656317,4.005658612884872,64659.54322517606,4.005658612884872
231,64656.31969325708,3.757702742499532,64660.07739599958,3.757702742499532
232,64657.098772929974,3.182544935349142,64660.28131786532,3.182544935349142
234,64658.64789165319,4.507270324837009,64663.15516197803,4.507270324837009
233,64657.87483077093,5.636110043655208,64663.51094081459,5.636110043655208
235,64659.41798013949,5.573938846580859,64664.991918986074,5.573938846580859
238,64661.71065230011,5.091536239153356,64666.802188539266,5.091536239153356
237,64660.94933665348,6.585744978518051,64667.535081632,6.585744978518051
240,64663.22467523436,4.457768261258025,64667.68244349562,4.457768261258025
239,64662.4690907985,5.417435026545718,64667.886525825044,5.417435026545718
242,64664.72737286106,3.7161912708252203,64668.443564131885,3.7161912708252203
243,64665.474530836575,3.286653089009633,64668.761183925584,3.286653089009633
236,64660.185120487215,8.81879013433354,64669.00391062155,8.81879013433354
241,64663.97742841245,6.042793002343387,64670.020221414794,6.042793002343387
245,64666.96057506032,4.2920541495332145,64671.82713578153,4.86656072120968
247,64668.43573386045,3.7805469405138865,64672.21628080097,3.7805469405138865
246,64667.69950450066,4.609504339554405,64672.30900884022,4.609504339554405
249,64669.900175934585,3.0626257204421563,64672.96280165503,3.0626257204421563
248,64669.16928410047,4.343165694110212,64673.51244979458,4.343165694110212
244,64666.218924327804,6.720662933243148,64673.52285147251,7.303927144705085
250,64670.62842983368,4.058820747071877,64674.687250580755,4.058820747071877
252,64672.07710451817,3.35073253565497,64675.42783705382,3.35073253565497
251,64671.35406602946,4.310459247259132,64675.66452527672,4.310459247259132
253,64672.79756506425,3.1386914338363567,64675.936256498084,3.1386914338363567
254,64673.51546720398,3.5794224900455447,64677.094889694024,3.5794224900455447
256,64674.94367328957,3.3196866194775794,64678.26335990905,3.3196866194775794
255,64674.23083024896,4.155351805326063,64678.38618205429,4.155351805326063
257,64675.654015198386,4.7368239904608345,64680.39083918885,4.7368239904608345
